[Header]
Data File Name	C:\GCMSsolution\Data\2024\202405\20240514-1.qgd
Output Date	2024/6/11
Output Time	9:39:45

[MS Spectrum]
# of Peaks	62
Raw Spectrum	1.242 -> 1.258 (scan : 126 -> 128)
Background	1.183 <-> 1.367 (scan : 119 <-> 141)
Base Peak	m/z 43.95 (Inten : 299,137)
Event#	1
m/z	Absolute Intensity	Relative Intensity
21.95	1245	0.42
27.05	175	0.06
28.00	23603	7.89
30.00	7	0.00
31.05	24	0.01
31.95	485	0.16
38.95	33	0.01
39.95	41	0.01
42.95	1463	0.49
43.95	299137	100.00
44.95	3537	1.18
45.95	1355	0.45
52.90	4	0.00
54.05	2	0.00
55.00	57	0.02
56.00	25	0.01
57.00	13	0.00
58.00	21	0.01
59.00	4	0.00
65.00	34	0.01
72.00	18	0.01
73.00	18	0.01
77.00	12	0.00
79.00	3	0.00
82.00	5	0.00
85.05	41	0.01
86.10	18	0.01
91.10	16	0.01
99.00	11	0.00
101.00	3	0.00
105.00	7	0.00
107.00	23	0.01
108.00	1	0.00
111.05	20	0.01
113.10	10	0.00
115.10	20	0.01
116.10	11	0.00
117.10	9	0.00
119.10	41	0.01
123.10	9	0.00
124.10	3	0.00
126.10	12	0.00
128.10	34	0.01
129.10	36	0.01
130.10	70	0.02
133.10	18	0.01
137.10	11	0.00
139.10	21	0.01
141.10	72	0.02
145.10	4	0.00
147.10	9	0.00
148.10	70	0.02
149.10	15	0.01
153.10	20	0.01
157.10	4	0.00
161.10	6	0.00
165.10	34	0.01
185.10	9	0.00
229.10	37	0.01
255.10	3	0.00
257.10	71	0.02
386.10	39	0.01
[MS Spectrum]
# of Peaks	42
Raw Spectrum	2.442 -> 2.458 (scan : 270 -> 272)
Background	2.167 <-> 2.525 (scan : 237 <-> 280)
Base Peak	m/z 31.00 (Inten : 4,260,516)
Event#	1
m/z	Absolute Intensity	Relative Intensity
19.95	282	0.01
21.30	1511	0.04
22.30	103	0.00
24.00	7688	0.18
25.00	53317	1.25
26.00	310415	7.29
27.00	902906	21.19
28.05	224785	5.28
29.00	1183478	27.78
30.05	293121	6.88
31.00	4260516	100.00
32.00	53094	1.25
33.00	16706	0.39
34.00	220	0.01
37.00	371	0.01
39.05	596	0.01
40.00	9336	0.22
41.00	46125	1.08
42.00	189278	4.44
43.00	500169	11.74
44.05	67652	1.59
45.00	2584301	60.66
46.00	1078773	25.32
47.00	837325	19.65
48.00	21635	0.51
48.95	6368	0.15
50.00	162	0.00
53.00	62	0.00
59.00	550	0.01
61.00	1094	0.03
63.00	229	0.01
65.00	257	0.01
73.00	5647	0.13
74.05	282	0.01
75.05	1626	0.04
76.05	406	0.01
77.00	21824	0.51
78.00	862	0.02
91.00	850	0.02
92.00	113	0.00
93.00	2343	0.05
94.00	20	0.00
[MS Spectrum]
# of Peaks	124
Raw Spectrum	6.592 -> 6.608 (scan : 768 -> 770)
Background	6.525 <-> 6.642 (scan : 760 <-> 774)
Base Peak	m/z 57.05 (Inten : 2,529,480)
Event#	1
m/z	Absolute Intensity	Relative Intensity
19.90	57	0.00
20.90	126	0.00
23.90	74	0.00
25.05	635	0.03
26.00	19050	0.75
27.00	216835	8.57
28.00	82424	3.26
29.00	675753	26.72
30.05	24389	0.96
31.00	191519	7.57
32.00	6526	0.26
33.00	6672	0.26
34.00	57	0.00
36.00	35	0.00
37.00	1716	0.07
38.05	6040	0.24
38.95	113227	4.48
40.05	23214	0.92
41.00	823389	32.55
42.00	54974	2.17
43.00	131207	5.19
44.00	79438	3.14
45.00	953396	37.69
46.00	25181	1.00
47.00	4854	0.19
48.00	174	0.01
49.00	374	0.01
49.95	3048	0.12
50.95	5171	0.20
52.05	2268	0.09
53.00	16842	0.67
54.05	8829	0.35
55.00	142677	5.64
56.05	271618	10.74
57.05	2529480	100.00
58.05	124759	4.93
59.00	12277	0.49
60.00	3893	0.15
61.00	23745	0.94
62.00	13183	0.52
63.00	101412	4.01
64.00	2492	0.10
65.00	550	0.02
66.00	136	0.01
67.00	630	0.02
68.05	289	0.01
69.00	10664	0.42
70.05	4142	0.16
71.00	134831	5.33
72.00	97371	3.85
73.00	55767	2.20
74.05	5346	0.21
74.95	247736	9.79
76.00	8953	0.35
76.95	1376	0.05
78.00	89	0.00
81.00	73	0.00
82.00	663	0.03
83.00	154	0.01
84.05	407	0.02
85.00	55448	2.19
86.05	8427	0.33
87.05	652259	25.79
88.00	37817	1.50
89.00	19395	0.77
90.00	1327	0.05
91.00	1054	0.04
92.00	136	0.01
94.00	5	0.00
97.10	5	0.00
98.05	52	0.00
99.05	861	0.03
100.05	93837	3.71
101.05	7740	0.31
102.05	537	0.02
103.00	687	0.03
104.00	136	0.01
107.00	3	0.00
111.05	35	0.00
112.00	17	0.00
113.10	18	0.00
114.00	41	0.00
115.00	1325	0.05
116.15	194	0.01
117.15	2355	0.09
118.05	12088	0.48
119.05	33159	1.31
120.10	2258	0.09
121.10	182	0.01
122.10	1	0.00
124.10	11	0.00
125.10	35	0.00
129.10	54	0.00
130.10	143	0.01
131.10	7602	0.30
132.10	649	0.03
133.10	34	0.00
136.10	18	0.00
138.10	12	0.00
139.10	7	0.00
140.10	104	0.00
143.10	41	0.00
145.10	141	0.01
149.10	17	0.00
150.10	33	0.00
151.10	100	0.00
152.10	14	0.00
153.10	53	0.00
155.10	39	0.00
157.10	122	0.00
163.10	37	0.00
166.10	42	0.00
171.10	75	0.00
185.10	7	0.00
207.10	68	0.00
208.10	69	0.00
213.10	124	0.00
236.10	53	0.00
237.10	76	0.00
250.10	34	0.00
255.10	57	0.00
256.10	141	0.01
257.10	134	0.01
368.10	34	0.00
[MS Spectrum]
# of Peaks	101
Raw Spectrum	7.017 -> 7.033 (scan : 819 -> 821)
Background	6.983 <-> 7.092 (scan : 815 <-> 828)
Base Peak	m/z 44.00 (Inten : 483,464)
Event#	1
m/z	Absolute Intensity	Relative Intensity
20.00	42	0.01
24.00	660	0.14
25.00	4350	0.90
26.00	30505	6.31
27.00	88051	18.21
28.00	52724	10.91
29.00	185967	38.47
30.05	16317	3.38
31.00	272820	56.43
31.95	3581	0.74
33.00	765	0.16
34.00	94	0.02
36.05	1135	0.23
36.95	3443	0.71
37.95	4325	0.89
38.95	6974	1.44
39.95	1623	0.34
41.00	6314	1.31
42.00	42847	8.86
42.95	414524	85.74
44.00	483464	100.00
45.00	45508	9.41
46.00	2119	0.44
46.95	1078	0.22
51.00	121	0.03
51.95	346	0.07
52.95	1856	0.38
54.05	632	0.13
54.95	18585	3.84
55.95	12531	2.59
57.00	5189	1.07
58.00	672	0.14
58.95	4982	1.03
60.00	82	0.02
62.00	15	0.00
68.00	61	0.01
69.00	317	0.07
70.05	41	0.01
71.00	1156	0.24
72.05	133	0.03
73.00	4705	0.97
74.00	874	0.18
75.00	183	0.04
76.00	47	0.01
77.00	9	0.00
80.00	27	0.01
81.00	43	0.01
82.00	20	0.00
83.05	32	0.01
84.00	44	0.01
85.05	47	0.01
87.00	64	0.01
88.00	36	0.01
93.00	1	0.00
94.00	12	0.00
95.05	30	0.01
96.05	47	0.01
97.05	58	0.01
98.05	24	0.00
99.00	17	0.00
107.00	2	0.00
108.00	37	0.01
109.10	33	0.01
110.10	15	0.00
111.10	41	0.01
112.10	40	0.01
115.10	21	0.00
116.10	15	0.00
117.10	17	0.00
119.10	15	0.00
120.10	34	0.01
121.10	12	0.00
123.10	19	0.00
124.10	32	0.01
125.10	18	0.00
126.10	22	0.00
127.10	11	0.00
129.10	42	0.01
133.10	6	0.00
134.10	91	0.02
135.10	31	0.01
137.10	30	0.01
138.10	23	0.00
139.10	19	0.00
141.10	85	0.02
147.10	2	0.00
149.10	10	0.00
151.10	45	0.01
152.10	26	0.01
153.10	105	0.02
155.10	70	0.01
157.10	72	0.01
166.10	41	0.01
171.10	105	0.02
185.10	93	0.02
194.10	69	0.01
236.10	58	0.01
237.10	74	0.02
243.10	110	0.02
256.10	47	0.01
257.10	36	0.01
[MS Spectrum]
# of Peaks	135
Raw Spectrum	8.242 -> 8.258 (scan : 966 -> 968)
Background	8.092 <-> 8.367 (scan : 948 <-> 981)
Base Peak	m/z 31.00 (Inten : 3,017,078)
Event#	1
m/z	Absolute Intensity	Relative Intensity
19.90	87	0.00
21.20	388	0.01
24.00	1382	0.05
25.00	8572	0.28
26.00	41875	1.39
27.00	153957	5.10
28.05	37295	1.24
29.00	480156	15.91
30.05	90796	3.01
31.00	3017078	100.00
32.00	336931	11.17
33.00	1281377	42.47
34.00	15988	0.53
35.00	2815	0.09
36.00	71	0.00
39.00	59	0.00
39.95	3512	0.12
40.95	18927	0.63
41.95	117456	3.89
42.95	439726	14.57
43.95	86956	2.88
44.95	160362	5.32
45.95	3742	0.12
46.95	1010	0.03
48.90	132	0.00
50.00	155	0.01
50.90	186	0.01
54.00	49	0.00
55.00	442	0.01
55.95	3996	0.13
57.00	794	0.03
57.95	2772	0.09
59.00	1081	0.04
60.00	7598	0.25
61.00	99864	3.31
62.00	198912	6.59
63.00	54389	1.80
64.00	2009	0.07
65.00	352	0.01
66.00	69	0.00
67.00	113	0.00
68.00	82	0.00
69.00	340	0.01
70.00	175	0.01
71.00	282	0.01
72.05	285	0.01
72.95	17850	0.59
73.95	25609	0.85
74.95	3638	0.12
76.00	264	0.01
76.95	582	0.02
78.00	35	0.00
79.00	26	0.00
80.00	43	0.00
81.00	146	0.00
82.05	85	0.00
83.05	269	0.01
84.05	212	0.01
85.05	226	0.01
86.00	1798	0.06
87.00	2957	0.10
88.00	206	0.01
89.00	234	0.01
90.00	68	0.00
91.00	138	0.00
92.00	90	0.00
93.00	174	0.01
94.00	117	0.00
95.05	149	0.00
96.05	132	0.00
97.10	317	0.01
98.05	256	0.01
99.10	120	0.00
101.00	117	0.00
102.00	87	0.00
104.00	62	0.00
105.00	1334	0.04
106.00	179	0.01
107.00	38	0.00
108.00	109	0.00
109.10	100	0.00
110.05	102	0.00
111.05	156	0.01
112.10	80	0.00
113.00	42	0.00
114.00	115	0.00
115.00	116	0.00
116.10	60	0.00
117.00	70	0.00
118.00	35	0.00
119.05	77	0.00
120.10	49	0.00
121.05	73	0.00
122.10	87	0.00
123.05	76	0.00
124.10	39	0.00
125.05	109	0.00
126.10	87	0.00
127.10	49	0.00
128.00	72	0.00
129.05	231	0.01
130.00	122	0.00
131.10	129	0.00
133.00	73	0.00
134.00	134	0.00
135.00	87	0.00
136.00	294	0.01
137.05	90	0.00
138.10	67	0.00
139.10	54	0.00
140.10	72	0.00
141.10	123	0.00
143.10	62	0.00
145.00	120	0.00
147.10	47	0.00
148.10	81	0.00
149.10	34	0.00
151.10	83	0.00
152.10	49	0.00
153.10	38	0.00
155.00	69	0.00
157.10	137	0.00
166.10	36	0.00
171.10	87	0.00
185.00	115	0.00
194.10	35	0.00
213.10	134	0.00
236.10	77	0.00
237.10	73	0.00
239.10	39	0.00
243.10	34	0.00
255.10	128	0.00
256.10	85	0.00
257.10	42	0.00
368.10	28	0.00
